3943,3942,3943,3944,3942,3943,3942,3945,3942,3942,3942,3944,3944,3943,3943,3941,3944,3940,3943,3939,3943,3941,3941,3942,3944,3945,3941,3942,3941,3943,3941,3941,3942,3942,3943,3941,3942,3942,3941,3941,3941,3942,3941,3941,3940,3944,3940,3943,3941,3943,3941,3942,3941,3942,3943,3942,3943,3939,3942,3940,3943,3940,3941,3940,3941,3944,3942,3942,3940,3944,3942,3942,3941,3942,3942,3941,3943,3940,3942,3940,3942,3941,3942,3942,3940,3941,3940,3943,3939,3944,3942,3942,3940,3940,3940,3941,3944,3940,3943,3939,3941,3940,3942,3941,3943,3942,3942,3942,3938,3941,3940,3942,3939,3941,3940,3940,3941,3940,3943,3940,3942,3939,3941,3939,3941,3940,3939,3943,3941,3943,3939,3942,3940,3942,3940,3940,3940,3939,3942,3939,3943,3940,3941,3940,3942,3942,3941,3940,3938,3941,3940,3943,3941,3944,3940,3941,3941,3940,3943,3938,3942,3938,3942,3940,3942,3940,3939,3941,3940,3941,3938,3941,3939,3941,3940,3941,3942,3940,3941,3939,3941,3941,3940,3938,3940,3940,3941,3940,3939,3941,3939,3942,3938,3941,3939,3941,3940,3939,3940,3939,3941,3939,3941,3938,3941,3941,3941,3941,3941,3941,3938,3941,3939,3942,3939,3941,3939,3940,3940,3940,3941,3939,3942,3940,3940,3940,3943,3940,3940,3940,3940,3941,3938,3941,3939,3940,3939,3941,3941,3940,3941,3940,3942,3939,3943,3938,3940,3938,3940,3940,3939,3942,3939,3941,3939,3942,3941,3940,3940,3939,3941,3940,3942,3937,3940,3937,3940,3939,3941,3941,3939,3942,3940,3940,3938,3942,3938,3942,3941,3939,3939,3939,3942,3938,3941,3939,3939,3938,3941,3941,3940,3940,3937,3941,3938,3942,3938,3940,3939,3939,3942,3938,3940,3937,3940,3937,3943,3939,3940,3939,3940,3939,3938,3941,3938,3940,3939,3942,3938,3938,3941,3939,3940,3938,3941,3937,3939,3939,3940,3939,3938,3941,3939,3941,3936,3941,3938,3941,3937,3939,3941,3938,3939,3938,3942,3938,3939,3938,3940,3938,3939,3939,3938,3940,3936,3941,3939,3942,3936,3940,3940,3939,3938,3938,3940,3939,3940,3938,3940,3938,3938,3939,3940,3940,3935,3941,3938,3939,3936,3941,3940,3939,3939,3937,3940,3937,3940,3936,3941,3939,3940,3937,3939,3940,3937,3941,3937,3942,3937,3941,3938,3939,3938,3939,3940,3937,3941,3937,3940,3938,3939,3938,3940,3939,3936,3939,3938,3940,3937,3940,3939,3938,3936,3939,3938,3937,3940,3938,3942,3938,3941,3938,3940,3938,3938,3942,3938,3940,3938,3941,3937,3941,3938,3939,3939,3938,3942,3935,3941,3939,3939,3935,3940,3940,3940,3939,3938,3941,3937,3940,3936,3940,3938,3939,3938,3938,3939,3939,3940,3938,3941,3938,3939,3937,3939,3940,3939,3941,3937,3941,3937,3940,3938,3940,3938,3938,3940,3938,3940,3938,3940,3937,3939,3939,3940,3939,3937,3940,3938,3941,3936
3945,3943,3946,3942,3946,3942,3946,3946,3945,3945,3943,3947,3944,3946,3942,3945,3945,3945,3946,3943,3944,3942,3945,3943,3944,3942,3944,3943,3945,3946,3943,3945,3944,3948,3943,3946,3942,3946,3944,3944,3944,3943,3945,3942,3944,3943,3946,3943,3945,3944,3942,3945,3943,3945,3942,3944,3943,3945,3944,3943,3944,3943,3946,3943,3945,3943,3946,3944,3944,3945,3944,3944,3942,3945,3943,3944,3941,3945,3944,3944,3944,3943,3944,3942,3946,3943,3945,3943,3944,3944,3942,3945,3944,3946,3942,3944,3942,3943,3942,3944,3944,3944,3943,3941,3945,3944,3944,3942,3946,3943,3943,3944,3943,3945,3943,3944,3941,3944,3943,3945,3943,3941,3943,3942,3943,3941,3944,3944,3943,3943,3944,3942,3941,3945,3941,3943,3943,3944,3941,3943,3941,3942,3942,3944,3944,3941,3942,3941,3943,3944,3942,3944,3943,3944,3941,3941,3942,3942,3942,3945,3943,3942,3941,3941,3941,3941,3942,3943,3944,3943,3943,3941,3943,3942,3943,3942,3941,3942,3943,3943,3942,3942,3943,3942,3944,3942,3942,3941,3942,3942,3941,3941,3940,3942,3943,3943,3943,3941,3942,3943,3941,3942,3942,3943,3944,3939,3942,3943,3942,3941,3942,3943,3944,3943,3941,3941,3942,3942,3941,3942,3942,3943,3941,3941,3941,3943,3942,3940,3941,3941,3943,3941,3941,3941,3942,3943,3942,3940,3942,3944,3941,3942,3940,3942,3942,3940,3942,3942,3942,3941,3941,3942,3942,3940,3942,3942,3941,3942,3942,3943,3942,3942,3941,3940,3941,3940,3940,3942,3942,3939,3942,3941,3941,3943,3942,3941,3942,3941,3942,3943,3942,3940,3939,3942,3942,3941,3941,3941,3942,3940,3941,3941,3941,3940,3941,3942,3940,3940,3942,3942,3940,3941,3942,3941,3941,3941,3943,3940,3941,3940,3941,3941,3942,3940,3941,3942,3940,3940,3941,3941,3941,3940,3941,3942,3941,3940,3942,3942,3941,3941,3940,3940,3942,3942,3942,3941,3940,3941,3940,3940,3941,3942,3941,3939,3941,3941,3941,3941,3942,3940,3942,3940,3942,3940,3940,3942,3940,3941,3941,3943,3940,3941,3939,3942,3942,3941,3941,3940,3942,3940,3939,3941,3941,3940,3941,3940,3941,3940,3940,3941,3941,3942,3940,3941,3942,3941,3940,3941,3941,3939,3943,3940,3941,3939,3940,3940,3941,3940,3941,3940,3940,3940,3941,3941,3940,3940,3939,3940,3941,3940,3940,3940,3941,3940,3940,3939,3940,3940,3941,3940,3940,3941,3939,3940,3941,3942,3939,3939,3942,3940,3941,3940,3941,3939,3941,3941,3940,3941,3940,3941,3941,3940,3940,3942,3938,3941,3941,3940,3939,3939,3941,3942,3941,3938,3940,3941,3940,3939,3940,3940,3939,3940,3940,3940,3938,3942,3941,3941,3940,3938,3939,3940,3940,3940,3940,3941,3942,3941,3939,3940,3940,3940,3940,3939,3939,3941,3938,3940,3940,3940,3940,3939,3942,3940,3940,3940,3942,3939,3939,3939,3939
578,577,578,577,578,577,577,577,578,577,577,577,578,577,577,578,577,579,577,578,576,577,577,577,578,577,578,578,577,577,577,577,577,577,578,578,577,578,578,578,578,577,578,577,577,577,577,577,578,578,578,577,577,577,577,578,578,577,577,577,578,578,578,577,577,577,577,577,578,577,577,578,577,576,577,578,578,577,578,577,577,578,577,577,576,577,578,578,577,576,578,578,578,577,577,577,577,577,578,577,578,578,578,577,578,577,577,577,578,574,577,577,578,577,578,576,577,577,576,576,577,576,577,577,577,578,576,576,577,578,577,578,577,578,577,577,577,577,577,577,577,577,578,578,577,577,577,577,578,577,577,578,577,577,577,578,577,577,578,577,577,577,578,578,577,577,577,577,576,577,577,577,577,577,576,577,578,577,577,577,576,578,577,577,577,577,577,577,578,577,577,577,577,578,576,577,559,577,577,577,577,577,573,577,577,578,577,561,577,577,577,578,576,577,578,577,576,578,577,577,577,578,577,576,576,577,577,577,577,577,578,577,577,577,577,577,576,577,577,577,577,576,577,577,576,576,577,577,577,577,577,577,577,576,577,576,577,577,577,577,576,577,577,577,577,577,577,577,576,576,578,577,577,576,577,577,577,576,577,576,577,577,577,576,577,577,576,576,577,576,577,576,577,577,577,577,577,577,577,577,576,576,577,578,576,577,576,577,577,577,577,578,576,577,569,577,577,577,577,577,577,577,577,576,577,576,576,578,577,577,577,577,576,576,577,576,577,576,577,577,577,576,576,576,576,577,577,577,577,576,576,575,576,576,576,576,576,576,576,576,576,576,576,575,576,577,576,575,577,576,577,576,576,576,576,577,577,576,577,577,576,576,576,577,577,577,576,576,577,577,577,577,576,577,577,576,576,576,577,576,578,577,576,576,577,576,576,575,576,576,577,576,576,577,576,576,576,576,576,577,576,576,576,576,576,576,576,576,576,577,576,577,576,577,577,577,576,576,576,577,576,576,577,575,576,577,577,576,576,577,576,576,577,576,576,577,576,577,576,576,577,576,576,577,577,576,577,577,576,576,576,576,576,575,577,575,576,576,576,577,577,576,576,577,576,576,577,576,576,576,577,576,577,576,577,576,577,575,577,576,576
571,570,570,569,569,569,567,569,568,570,570,569,570,569,570,570,569,569,568,569,569,567,570,570,569,569,569,570,569,570,569,568,569,569,570,570,569,570,569,568,569,569,569,568,569,569,569,567,570,569,570,569,569,569,569,569,569,569,568,569,569,569,567,569,569,570,570,569,570,570,570,569,570,568,568,570,568,568,568,568,570,569,568,568,569,568,568,569,569,569,569,569,570,568,570,568,570,570,570,569,569,569,569,569,569,569,569,568,569,570,569,569,569,567,569,569,568,570,569,570,568,568,567,568,569,570,568,568,567,569,569,570,568,569,569,569,568,569,568,569,569,567,570,568,569,568,569,569,568,568,569,570,569,568,569,570,569,569,569,568,569,569,569,569,570,568,569,569,569,569,568,568,570,568,570,570,569,569,569,569,569,569,569,568,569,570,570,569,569,570,568,569,569,569,569,569,569,569,569,571,569,569,569,568,569,569,568,569,569,568,568,569,568,569,570,569,569,569,569,569,568,570,568,568,568,569,568,568,569,569,569,569,569,568,569,570,569,568,570,569,568,568,569,569,570,570,570,570,570,568,569,568,569,568,568,568,568,569,569,568,570,569,568,569,569,568,570,570,569,569,570,568,570,568,569,568,569,569,569,569,569,569,569,569,570,569,570,570,568,569,568,569,568,570,570,569,569,571,569,568,569,570,569,569,569,569,570,570,569,570,570,570,568,569,568,569,569,569,569,569,569,569,570,570,569,569,569,568,568,569,570,569,567,568,569,569,569,568,569,569,569,569,569,568,570,570,570,570,568,570,569,568,569,569,569,569,569,571,568,569,570,570,569,569,569,569,569,570,570,569,569,568,568,569,570,569,569,569,569,568,569,570,570,569,569,569,569,569,568,569,568,569,569,568,569,569,569,567,568,569,568,569,569,567,568,568,569,568,568,568,569,568,567,569,568,568,568,568,569,568,569,569,568,568,568,568,568,568,569,570,570,568,570,569,568,568,569,569,568,569,570,570,567,569,568,569,569,568,569,569,569,568,569,568,568,570,569,568,568,569,569,568,569,569,569,568,568,568,569,568,568,567,569,569,569,568,568,568,568,568,569,568,568,569,569,569,569,569,568,568,568,569,570,569,569,569,568,569,568,568,569
571,572,571,572,571,572,571,572,572,571,572,571,571,571,572,571,571,572,571,571,570,571,571,572,571,573,573,572,572,571,571,571,570,571,571,571,572,572,571,571,572,572,571,571,572,571,571,570,571,571,572,572,572,570,571,571,570,571,572,571,571,570,571,570,571,571,571,572,571,571,571,571,570,570,570,571,571,571,570,571,571,571,571,571,571,571,572,571,571,572,571,571,572,571,572,572,571,572,571,571,571,571,571,571,571,571,571,570,571,572,571,571,571,572,572,571,572,572,570,572,571,572,572,571,572,571,571,571,571,571,572,571,572,571,571,572,571,572,572,571,571,571,571,572,571,571,571,572,571,571,572,571,571,572,571,571,571,571,571,572,573,571,571,571,571,572,571,571,571,572,571,572,572,572,572,571,571,570,572,570,572,570,571,571,571,572,572,571,571,571,572,570,571,571,571,572,573,572,572,571,571,572,572,572,572,571,571,571,571,572,572,571,572,571,572,571,571,571,572,572,573,572,571,571,572,572,571,572,572,571,571,571,571,570,570,572,571,572,571,571,570,570,571,571,572,572,572,571,572,571,571,571,571,571,572,571,572,572,572,571,571,572,572,572,571,571,570,572,572,570,571,571,571,571,571,572,571,572,572,572,571,572,571,571,571,572,572,572,572,571,571,572,572,572,572,572,571,572,572,572,572,571,571,573,572,572,572,571,572,572,572,572,571,572,573,572,571,573,571,572,572,571,572,571,572,571,572,572,571,572,573,572,573,572,572,573,572,572,572,572,573,573,573,572,572,572,572,572,572,572,572,572,572,572,572,571,572,572,572,573,572,572,572,571,572,572,572,572,572,572,572,572,572,572,572,571,571,573,572,572,571,572,572,572,572,572,571,572,572,572,572,572,571,571,572,571,571,571,572,572,572,571,572,572,571,572,573,572,573,572,571,572,572,572,572,572,572,571,572,573,572,572,572,572,572,572,572,572,572,572,572,573,573,571,571,572,572,572,572,573,572,572,573,572,572,572,572,572,572,572,572,573,573,572,572,572,572,572,571,572,572,573,573,572,572,571,572,572,573,572,572,571,572,572,572,572,572,573,572,572,571,572,571,572,572,572,572,572,572,572,571,573,573,571,573,572,572,572,573,571,573
691,691,691,690,691,689,690,691,691,693,693,691,692,690,691,690,689,690,690,690,690,692,691,690,691,692,692,692,692,690,691,691,689,691,691,689,690,691,692,691,690,691,691,691,691,691,691,692,691,690,690,690,691,690,691,691,689,691,690,689,690,689,691,690,691,690,691,692,691,693,692,691,692,690,690,692,692,693,693,693,692,694,693,694,693,693,694,694,694,693,693,694,692,692,692,694,692,693,692,693,692,694,692,692,693,693,694,693,693,694,692,694,693,694,694,694,695,695,694,694,693,694,694,693,694,694,694,693,694,694,695,695,695,695,695,695,696,695,695,695,696,695,695,695,695,697,696,697,695,695,695,695,696,695,695,697,694,695,696,695,695,695,695,696,697,697,696,697,698,698,699,698,699,699,698,698,701,700,700,701,701,700,701,700,700,700,701,701,702,701,699,699,699,700,701,701,699,701,700,701,701,700,701,700,701,702,701,702,700,701,702,703,702,702,701,702,702,703,702,703,701,702,702,702,702,702,704,702,701,702,703,703,702,703,703,703,703,703,704,704,704,705,704,703,704,704,703,705,706,706,707,705,707,706,705,705,705,705,706,705,707,705,706,707,706,707,705,709,708,708,708,707,708,708,708,709,708,709,707,709,709,704,706,708,710,708,708,707,708,709,709,708,708,708,707,707,708,709,709,708,709,708,707,706,707,708,707,709,708,709,709,708,709,711,710,711,711,711,711,711,712,715,713,712,712,711,713,715,713,713,716,713,716,716,716,718,718,718,719,719,720,719,718,719,720,719,720,720,720,719,720,721,720,721,721,722,721,723,723,722,721,723,724,725,726,727,726,728,727,727,730,727,728,726,727,727,727,728,727,729,732,732,731,729,732,731,733,733,732,734,734,735,735,735,735,737,737,736,735,737,738,739,737,738,741,742,743,743,745,743,748,750,753,751,755,755,758,759,762,764,769,772,777,780,789,802,833,728,714,707,703,702,700,699,695,695,693,692,692,690,688,687,687,686,685,685,685,685,685,685,684,681,683,683,683,682,680,679,679,680,679,680,679,679,680,678,679,678,679,678,679,678,677,676,679,678,677,675,677,677,676,677,678,675,678,674,677,677,676,674,675,675,675,677,677,677,677,677,677,678,678
699,700,701,701,701,701,700,701,701,703,702,702,703,703,703,703,703,703,703,702,702,701,703,703,703,703,703,703,704,704,705,703,704,704,706,706,705,705,707,705,706,706,707,708,709,706,709,707,707,708,708,708,711,711,711,712,712,711,712,713,714,715,715,715,716,716,716,717,717,717,718,718,720,720,719,721,720,721,722,723,722,725,724,726,725,726,724,725,726,727,726,729,729,727,727,728,729,730,729,729,729,732,731,734,734,735,736,735,737,736,739,742,742,744,744,745,746,746,744,747,749,751,752,753,754,757,758,761,764,767,769,775,780,785,791,808,844,781,756,744,743,736,734,730,724,724,721,721,721,718,717,713,712,712,711,711,712,711,711,710,709,709,710,707,706,705,706,705,703,702,702,700,699,699,697,697,696,695,696,695,695,695,695,695,694,695,694,693,694,694,695,695,695,695,695,693,694,694,695,694,693,692,693,693,692,694,690,691,691,691,690,689,689,689,688,688,687,687,687,686,686,686,686,685,685,684,684,685,684,684,684,683,681,684,683,680,681,682,681,682,683,681,682,682,681,681,680,681,681,682,682,681,679,680,679,681,679,680,680,679,680,679,678,679,678,679,679,678,678,678,678,678,679,677,677,674,676,675,675,673,674,674,675,676,674,674,673,674,675,675,675,674,672,672,672,672,672,672,672,673,671,672,671,671,671,670,671,671,671,672,671,672,671,671,671,671,671,670,671,671,672,671,672,671,671,671,672,672,671,671,672,671,671,671,671,671,671,671,671,671,671,671,671,671,671,672,671,671,671,671,671,671,671,671,671,671,670,671,670,672,670,671,670,671,670,671,671,669,671,670,669,670,670,670,670,670,670,671,669,670,670,670,670,671,670,671,671,671,670,671,670,670,671,670,670,670,670,671,669,670,671,670,670,670,670,670,669,670,670,671,670,670,670,670,670,670,670,669,670,670,670,670,668,670,671,668,669,669,670,670,669,670,670,669,669,670,669,669,668,670,670,669,669,669,670,668,669,668,669,671,670,670,670,670,670,670,670,671,670,669,670,669,671,670,670,671,671,670,669,670,671,671,671,671,671,670,671,670,670,670,670,670,671,670,671,671,670,670,671,671,670,670,670,671,671,671,671,671,671,671,670
681,680,682,682,683,682,681,683,682,682,682,682,682,680,682,680,680,681,681,683,681,683,683,682,683,683,683,683,682,683,682,683,683,684,684,684,684,683,683,682,683,684,684,684,685,685,685,684,685,684,684,683,684,684,684,685,685,685,684,684,685,685,684,686,685,685,686,685,686,685,685,686,685,686,686,686,686,686,686,686,685,686,687,687,687,687,686,686,686,686,687,687,687,688,688,689,689,688,689,689,688,689,689,689,689,689,690,689,690,690,690,690,689,689,688,690,688,691,690,690,690,689,689,690,689,690,691,691,691,690,691,691,690,692,690,691,691,692,691,690,691,690,691,692,691,690,690,690,690,691,691,691,691,691,689,690,692,692,693,692,692,693,691,692,693,694,692,692,693,692,692,693,692,694,693,693,692,693,693,692,693,694,693,693,695,694,694,694,694,694,694,694,695,695,695,695,695,695,695,695,695,695,695,695,695,695,695,696,695,695,695,696,696,696,696,697,697,696,697,696,695,697,695,696,696,697,696,697,696,698,696,698,697,698,697,696,695,697,696,698,698,699,699,698,699,698,698,697,699,698,700,698,701,700,701,701,700,700,701,702,700,701,700,702,702,703,702,703,702,702,703,703,703,702,703,702,703,702,703,703,703,704,704,703,704,705,703,704,704,705,705,706,707,707,707,706,706,707,707,707,708,708,709,709,707,707,707,708,707,709,709,710,710,710,710,711,711,711,711,711,710,711,711,712,713,712,712,711,712,712,714,712,712,712,713,710,713,713,714,713,715,714,717,715,716,715,716,716,716,715,716,716,718,718,718,719,719,719,721,721,721,721,720,721,722,723,724,724,723,723,723,725,723,727,727,726,727,727,728,729,728,727,729,730,731,731,730,730,732,732,734,735,738,737,739,737,742,743,743,744,747,747,747,750,751,752,752,754,755,757,759,760,759,765,767,768,771,776,780,789,806,873,758,743,735,732,727,726,726,725,724,723,723,722,720,719,719,719,719,720,721,720,719,720,720,718,718,717,716,716,716,715,716,716,714,714,715,715,714,712,711,713,714,713,713,712,712,711,711,713,711,710,711,710,710,712,710,709,709,709,707,706,710,707,707,708,708,708,708,709,711,707,707,708,707,708,708,707,708,708,706
614,613,614,615,615,614,614,614,614,614,614,615,615,613,614,614,615,615,614,613,614,615,614,615,615,614,615,615,615,615,616,615,615,616,617,615,615,615,615,615,615,615,617,616,615,617,615,617,616,617,616,615,617,616,617,616,616,616,616,615,615,615,615,617,616,617,617,616,616,618,616,617,616,618,615,617,617,617,617,617,616,617,616,617,615,616,617,616,617,617,616,618,619,617,617,617,617,618,618,619,617,619,618,617,619,620,619,620,619,619,619,618,619,618,619,618,619,619,620,618,618,617,618,619,618,620,618,620,619,619,619,619,617,618,619,618,618,618,620,619,617,618,620,620,618,619,619,618,619,619,619,618,619,619,618,620,619,619,620,619,619,619,618,619,620,620,620,619,617,619,620,619,619,621,619,620,619,620,621,620,620,621,618,620,620,620,620,620,620,620,619,620,620,621,619,620,621,620,621,621,620,620,619,621,620,621,621,620,622,621,621,620,621,622,622,621,622,622,621,620,621,621,622,621,622,622,622,621,621,621,622,622,622,621,622,621,621,622,622,623,621,621,622,622,622,622,622,623,622,622,622,622,622,622,621,621,621,622,622,623,621,621,621,621,621,622,621,621,622,623,621,621,622,623,623,623,622,622,622,622,621,623,623,622,623,623,623,622,622,621,622,623,622,622,622,621,621,622,622,622,621,622,622,622,622,623,624,623,623,623,623,622,621,623,623,622,622,622,623,623,623,623,623,624,624,622,624,623,623,624,624,623,624,623,623,624,623,623,623,624,624,623,623,623,624,624,624,624,624,623,610,613,624,623,624,624,623,623,623,623,623,623,623,623,623,623,624,623,623,623,623,624,624,623,623,623,623,623,624,624,624,624,624,624,623,623,623,624,623,623,623,623,623,624,623,624,624,625,624,624,624,623,623,623,624,624,624,623,624,624,626,624,624,624,624,625,624,625,624,624,624,624,624,625,625,624,626,625,625,625,625,625,625,626,625,625,625,624,625,625,624,625,626,626,626,626,626,625,626,626,626,626,625,628,626,626,625,627,627,627,625,627,626,628,626,625,626,625,626,626,626,625,626,626,625,627,628,627,628,628,627,626,627,627,628,627,627,627,627,627,626,627,627,627,625,627,627,626,627,626,625
705,705,706,706,705,706,705,705,704,706,705,707,704,704,706,704,705,705,706,705,705,707,706,704,705,706,705,705,706,706,704,705,705,704,706,705,706,705,706,706,707,706,706,706,705,705,707,706,707,707,707,705,705,706,706,707,705,706,706,706,706,705,706,706,705,705,707,705,706,704,706,705,705,704,706,705,706,705,704,705,705,706,706,705,706,705,705,706,705,706,707,706,707,706,707,706,706,706,708,705,706,708,707,707,707,708,707,708,707,707,705,706,705,707,705,707,707,708,706,707,705,706,706,706,707,706,706,706,705,706,705,706,706,706,705,705,705,705,705,705,705,706,705,705,705,704,705,704,705,705,705,705,704,704,705,705,705,705,705,706,705,705,705,706,706,705,705,705,706,706,704,706,706,706,705,705,705,706,707,706,705,705,704,705,705,705,705,706,705,705,705,704,704,704,704,704,706,705,705,704,705,705,707,705,706,707,706,706,705,705,705,706,707,706,706,705,707,707,708,707,707,708,708,707,708,709,707,708,709,708,709,709,708,709,711,710,709,710,710,709,710,709,710,709,709,710,709,710,708,709,709,709,709,709,709,709,709,709,707,708,708,708,708,710,709,708,710,708,708,708,707,710,708,709,708,709,710,709,710,709,709,710,711,709,709,710,710,710,709,708,710,710,710,709,709,710,710,709,709,710,711,709,710,710,711,710,710,710,711,710,709,710,711,710,710,710,710,712,711,712,710,711,712,711,711,711,712,712,712,713,711,712,711,712,713,711,713,712,713,712,712,711,711,712,711,712,711,712,711,712,712,711,711,711,714,712,711,712,712,711,712,712,713,712,713,714,713,712,711,713,712,712,712,712,712,711,712,713,713,713,713,714,713,713,712,713,712,712,714,715,712,713,714,713,712,714,713,714,712,713,712,712,713,711,712,713,713,713,712,714,713,712,713,712,712,713,714,714,712,712,713,712,713,713,712,712,712,712,712,714,712,711,712,714,712,711,713,712,710,713,712,712,712,713,713,712,712,712,715,711,714,713,712,711,713,714,712,712,713,713,714,714,714,715,714,714,712,714,712,714,713,713,713,714,712,713,714,715,715,714,715,715,714,715,713,715,716,714,713,713,713,713,714,715,714,713,714,714,714,714,713,714,713,714,714,716,715,715,715,716,715,715,716,715,715,716,715,717,715,716,714,716,716,715,717,717,716,715,718,717,716,717,716,717,716,716,716,718,717,718,717,716,717,716,717,716,717,717,718,718,718,716,718,716,716,715,716,717,717,717,717,714,717,717,718,717,717,717,717,718,717,718,718,717,717,718,718,717,718,718,719,717,718,718,719,719,718,720,719,719,719,719,720,719,719,719,720,720,720,720,719,720,719,720,720,719,719,719,720,719,721,720,720,720,721,721,720,721,721,721,720,720,719,720,719,719,720,721,720,720,720,721,721,720,721,721,721,721,721,720,720,722,720,720,721,721,722,721,722,722,721,721,721,721,721,722,721,722,723,722,721,722,721,722,722,722,721,722,722,723,724,721,722,722,722,722,721,724,721,721,722,722,722,723,722,721,721,722,722,723,722,723,722,724,724,723,723,722,722,725,723,723,724,724,724,724,723,725,725,725,724,724,723,724,724,726,724,726,725,726,724,726,725,726,725,726,724,725,725,726,726,727,726,727,726,725,725,726,725,727,726,727,727,727,727,727,727,728,728,727,727,725,727,727,727,727,727,727,727,727,726,726,726,727,727,727,727,728,728,727,729,728,727,728,729,729,729,729,729,729,729,727,728,729,729,728,727,728,727,728,727,731,728,729,729,729,730,728,730,730,730,730,730,730,731,731,731,732,731,733,731,731,731,731,733,734,733,733,734,733,733,732,734,732,734,733,733,734,733,735,735,735,735,735,735,735,734,736,735,735,735,735,735,735,735,736,735,735,735,736,736,735,736,739,737,737,735,737,737,739,739,740,738,740,738,740,741,741,742,742,740,740,741,741,741,741,741,741,742,742,742,743,743,743,743,743,743,744,743,743,744,743,743,745,745,745,746,744,745,746,747,743,745,747,745,746,746,749,749,749,748,750,751,751,750,751,751,749,752,752,752,753,755,753,756,755,756,759,758,757,759,757,759,759,759,760,759,759,760,760,759,759,760,761,761,761,763,764,765,763,766,768,768,768,769,771,773,775,774,775,776,776,780,782,781,783,785,787,789,790,790,791,791,793,796,800,804,804,806,813,817,826,839,859,824,744,744,743,743,738,739,736,737,740,740,740,738,736,738,729,727
600,600,600,600,599,599,600,600,600,601,600,600,599,600,600,601,600,600,600,600,601,600,600,600,600,600,600,600,601,600,600,601,601,601,600,601,599,600,601,601,600,600,600,600,601,600,600,602,600,600,601,600,602,600,601,600,600,601,601,601,602,600,600,600,602,601,600,601,600,600,601,600,602,600,600,600,601,601,600,601,602,601,601,601,602,601,601,601,601,600,599,600,601,600,600,601,601,602,601,599,601,601,601,600,600,600,601,601,601,600,601,601,602,601,601,601,600,601,602,600,601,600,602,602,602,602,601,600,602,601,601,601,601,600,601,601,602,603,601,602,602,602,602,602,600,601,601,602,600,601,602
591,591,591,591,591,591,591,591,590,591,592,591,592,591,591,591,590,590,591,591,591,591,591,591,592,591,592,591,592,591,591,591,591,591,591,592,591,591,591,591,591,591,592,590,591,591,591,591,592,592,591,591,591,591,591,591,591,591,592,591,591,591,590,591,591,591,591,591,592,591,591,591,591,591,590,592,591,591,592,591,591,591,591,592,592,592,591,592,591,591,591,591,591,591,591,591,592,591,591,591,591,591,592,591,590,592,591,591,590,591,592,591,591,591,591,590,591,591,591,591,591,591,591,591,591,592,591,591,591,591,590,591,590,591,592,591,592,591,591,591,591,590,590,591,591,592,591,591,591,592,591,591,591,591,590,591,591,591,592,591,591,591,590,591,592,591,591,591,591,591,591,592,590,591,591,591,591,591,591,590,591,591,590,592,591,590,591,591,592,590,592,591,591,591,591,591,590,591,591,591,591,591,590,590,591,591,591,592,591,591,592,591,591,591,591,591,591,591,591,591,591,590,591,591,590,591,591,592,591,590,591,592,591,590,591,590,590,591,591,591,591,591,591,591,590,590,591,591,591,591,592,591,590,591,591,591,591,592,591,592,591,591,591,591,591,591,591,591,591,591,591,591,590,591,591,591,591,591,591,591,592,591,591,592,592,591,592,591,592,591,591,591,590,592,591,592,591,591,592,591,591,592,591,591,591,591,591,591,591,591,591,591,591,591,590,590,591,591,591,591,591,592,591,591,591,590,590,591,591,592,591,591,591,591,591,591,591,591,591,591,591,591,591,591,590,591,591,590,591,591,591,591,591,591,591,590,591,590,591,591,591,592,591,591,592,591,592,591,591,592,592,591,591,591,591,591,592,591,592,591,591,591,591,592,592,590,591,592,591,591,591,591,591,591,591,592,591,591,591,590,592,592,590,591,592,591,591,591,591,591,591,590,590,591,591,590,590,591,591,591,590,591,590,591,590,590,590,591,590,591,590,592,591,590,590,590,590,590,590,591,590,591,591,590,590,590,591,591,591,591,591,590,591,591,590,590,591,591,592,590,590,590,591,591,591,591,591,591,590,591,591,591,591,591,591,591,591,591,591,590,590,590,591,591,591,591,591,590,591,591,590,591,591,591,591,590,591,590,590,591,591,591,590,591,591,591,590,591,590,590,590,590,590,590,591,591,591,590,591,590,590,591,591,590,591,591,591,590,591,591,591,591,591,590,590,590,591,590,591,590,590,589,591,591,591,590,591,591,590,590,590,591,590,591,590,590,591,591,590,590,591,591,590,591,591,591,591,590,590,590,591,590,591,591,591,590,590,591,591,590,591,590,591,591,591,591,590,591,590,590,590,591,591,591,590,591,590,590,591,590,590,590,590,590,590,591,590,590,590,590,591,591,591,590,591,590,590,591,589,590,591,591,590,590,590,590,590,590,590,590,591,590,591,591,589,591,590,589,590,591,590,591,591,590,590,590,590,590,590,590,590,590,590,590,590,590,590,590,590,590,591,590,591,590,590,590,589,590,589,589,590,590,590,590,590,590,591,590,590,590,589,591,589,590,590,590,590,591,590,591,590,591,590,590,590,590,590,590,590,590,590,589,590,590,590,590,590,591,590,590,591,591,590,591,590,590,591,591,591,590,590,590,590,590,591,590,591,591,590,591,590,590,590,591,591,591,591,590,590,590,590,590,590,590,590,591,591,590,591,590,590,591,591,591,591,591,591,591,591,590,590,590,590,592,591,591,591,591,591,589,590,590,591,591,590,590,590,591,591,591,591,590,590,590,591,589,590,590,591,591,591,591,590,590,591,589,591,590,589,590,590,590,590,591,590,590,590,591,591,590,590,590,590,591,590,591,591,590,590,590,590,590,590,590,590,590,590,591,590,590,589,590,590,591,590,590,590,591,590,590,590,590,590,590,590,590,590,590,590,591,591,590,591,591,590,590,590,591,591,591,591,591,591,590,591,591,591,591,590,591,591,591,589,590,591,591,590,591,591,591,591,591,591,590,591,591,591,590,590,591,590,590,590,590,590,591,590,590,590,591,591,591,590,591,591,592,591,590,590,590,591,590,591,591,590,590,589,590,590,591,591,591,592,590,591,590,591,590,590,590,591,591,591,591,591,590,591,590,592,591,591,590,590,591,590,590,591,590,591,591,591,590,590,590,591,590,590,590,591,590,591,591,591,591,591,591,590,591,590,591,591,590,590,590,591,590,590,590,590,590,591,591,591,590,591,590,591,590,590,591,591,590,590,590,590,591,590,591,591,590,591
3948,3944,3946,3943,3947,3943,3943,3944,3944,3945,3944,3947,3942,3945,3943,3945,3945,3944,3944,3942,3946,3942,3947,3942,3946,3942,3946,3945,3942,3945,3943,3948,3943,3946,3942,3946,3943,3943,3946,3944,3946,3941,3946,3940,3946,3942,3945,3943,3943,3946,3941,3946,3941,3945,3942,3945,3944,3944,3944,3944,3947,3941,3945,3940,3944,3943,3945,3943,3944,3943,3942,3945,3941,3947,3941,3946,3943,3943,3943,3944,3945,3940,3945,3942,3944,3942,3944,3944,3943,3945,3941,3945,3943,3945,3940,3946,3944,3944,3944,3942,3946,3940,3946,3942,3945,3941,3944,3943,3942,3944,3941,3944,3940,3945,3941,3944,3944,3944,3944,3942,3945,3941,3944,3941,3947,3943,3945,3942,3941,3944,3941,3945,3941,3947,3942,3946,3941,3943,3944,3944,3943,3941,3945,3941,3945,3941,3944,3943,3944,3944,3941,3945,3942,3946,3941,3944,3941,3945,3943,3941,3943,3940,3945,3942,3945,3940,3944,3942,3944,3944,3943,3944,3939,3945,3940,3943,3940,3944,3942,3941,3942,3943,3944,3941,3943,3939,3946,3941,3941,3943,3942,3943,3939,3945,3942,3943,3940,3944,3943,3943,3943,3941,3944,3940,3944,3939,3942,3940,3944,3941,3942,3945,3939,3945,3940,3944,3939,3944,3940,3942,3944,3941,3944,3939,3943,3941,3945,3940,3943,3944,3941,3943,3939,3945,3938,3944,3941,3943,3940,3944,3943,3941,3945,3940,3946,3940,3943,3940,3944,3943,3942,3944,3941,3945,3940,3943,3939,3944,3941,3943,3942,3941,3944,3939,3945,3940,3944,3941,3943,3940,3943,3943,3940,3944,3941,3944,3940,3944,3941,3942,3943,3943,3945,3940,3943,3940,3942,3940,3945,3943,3942,3943,3941,3943,3941,3945,3941,3945,3939,3943,3942,3940,3943,3941,3944,3939,3944,3940,3941,3941,3942,3943,3941,3944,3938,3945,3940,3943,3941,3943,3941,3944,3942,3940,3944,3939,3944,3940,3943,3941,3940,3944,3940,3943,3941,3944,3938,3944,3940,3942,3942,3941,3941,3940,3943,3939,3943,3939,3943,3940,3942,3943,3941,3943,3941,3944,3939,3943,3941,3943,3942,3943,3943,3940,3943,3939,3945,3940,3944,3941,3940,3942,3941,3943,3940,3943,3940,3944,3939,3943,3942,3941,3942,3941,3943,3939,3944,3940,3942,3940,3943,3942,3940,3943,3940,3943,3939,3944,3940,3942,3940,3943,3943,3941,3944,3940,3942,3939,3944,3941,3941,3943,3940,3942,3940,3942,3939,3943,3940,3944,3939,3943,3942,3938,3943,3940,3944,3939,3943,3941,3942,3941,3939,3942,3940,3943,3939,3943,3940,3944,3941,3940,3942,3940,3943,3939,3942,3939,3943,3940,3943,3941,3941,3942,3940,3944,3938,3944,3939,3942,3941,3941,3940,3942,3943,3939,3943,3939,3944,3941,3941,3941,3943,3941,3942,3941,3939,3941,3939,3945,3941,3942,3942,3940,3942,3939,3944,3938,3943,3938,3943,3940,3940,3942,3941,3942,3940,3943,3939,3944,3941,3943,3940,3941,3943,3940,3943,3940,3944,3940,3944,3941,3942,3943,3940,3941,3941,3944,3940,3944,3938,3943,3941,3941,3942,3939,3943,3940,3942,3940,3941,3939,3941,3942,3939,3943,3941,3945,3938,3944,3940,3941,3942,3943,3942,3939,3944,3939,3944,3938,3941,3940,3941,3942,3941,3943,3938,3942,3940,3944,3939,3943,3941,3941,3942,3941,3942,3939,3945,3939,3943,3940,3941,3941,3941,3943,3940,3943,3940,3943,3939,3943,3941,3940,3943,3942,3942,3939,3945,3939,3943,3941,3942,3941,3942,3942,3942,3943,3938,3945,3938,3943,3940,3942,3942,3941,3942,3939,3944,3937,3944,3938,3942,3942,3942,3943,3939,3942,3940,3944,3939,3944,3941,3942,3943,3940,3942,3939,3944,3938,3943,3940,3943,3939,3941,3942,3939,3942,3939,3945,3940,3942,3941,3943,3940,3941,3941,3940,3942,3939,3945,3939,3941,3940,3941,3941,3940,3942,3938,3944,3939,3942,3940,3941,3940,3941,3943,3941,3942,3941,3943,3940,3942,3940,3941,3941,3940,3942,3939,3943,3937,3942,3940,3942,3941,3942,3942,3939,3944,3939,3942,3940,3944,3939,3943,3942,3940,3942,3939,3944,3940,3941,3940,3941,3940,3943,3942,3939,3943,3938,3942,3941,3942,3942,3942,3940,3940,3944,3938,3942,3939,3942,3940,3941,3939,3940,3941,3940,3943,3940,3944,3938,3942,3939,3941,3941,3942,3943,3940,3942,3940,3942,3940,3942,3940,3942,3941,3940,3944,3938,3941,3940,3943,3939,3943,3941,3940,3942,3939,3942,3940,3943,3938,3943,3940,3941,3942,3940,3943,3940,3943,3938,3942,3938,3942,3940,3942,3943,3939,3943,3937,3943,3940,3941,3941,3941,3940,3942,3942,3938,3944,3940,3943,3938,3942,3939,3941,3943,3939,3942,3940,3944,3938,3942,3940,3943,3942,3940,3943,3941,3943,3940,3943,3939,3944,3939,3942,3941,3940,3943,3940,3944,3939,3943,3940,3941,3940,3941,3941,3940,3943,3940,3945,3938,3942,3940,3941,3939,3942,3943,3939,3943,3940,3944,3938,3944,3940,3941,3943,3940,3943,3939,3944,3939,3943,3938,3943,3941,3940,3943,3941,3943,3939,3942,3938,3944,3939,3942,3942,3939,3943,3939,3942,3938,3942,3940,3940,3942,3940,3943,3940,3941,3939,3942,3939,3942,3941,3942,3940,3940,3943,3939,3942,3939,3942,3941,3941,3940,3942,3942,3938,3943,3940,3944,3938,3944,3938,3941,3942,3940,3942,3939,3943,3939,3944,3938,3944,3940,3941,3942,3940,3943,3939,3943,3939,3942,3939,3942,3940,3941,3940,3940,3943,3938,3944,3939,3941,3939,3940,3942,3939,3940,3939,3944,3937,3944,3939,3943,3940,3940,3941,3941,3943,3939,3944,3939,3941,3940,3941,3941,3941,3943,3939,3943,3939,3942,3938,3942,3940,3941,3941,3939,3943,3938,3942,3939,3941,3939,3942,3940,3941,3941,3940,3944,3938,3942,3940,3942,3941,3941,3940,3942,3941,3939,3944,3937,3944,3939,3941,3941,3941
556,555,556,555,555,554,555,554,555,556,555,556,555,556,555,555,555,555,556,555,555,554,555,555,556,554,555,556,556,556,555,555,554,556,556,556,554,554,554,555,555,555,556,555,555,554,555,554,555,555,554,555,554,553,555,554,554,554,554,554,555,554,554,554,555,554,555,553,554,554,553,555,555,554,554,554,554,555,555,556,555,556,556,555,555,556,556,556,555,556,555,555,555,555,555,556,555,556,554,556,556,556,555,554,554,555,554,554,556,555,555,556,556,556,554,554,555,555,554,555,555,555,553,554,554,555,553,553,553,553,553,554,554,553,553,554,554,554,553,553,553,554,553,553,554,552,553,554,553,553,553,553,553,553,552,552,552,553,553,552,553,554,553,553,554,552,554,552,552,552,553,552,552,552,552,553,552,552,553,551,552,552,552,552,552,552,551,551,552,552,552,552,552,551,552,552,551,552,553,552,551,551,552,553,552,551,552,552,552,552,551,552,552,552,551,552,551,551,551,551,552,552,551,552,551,551,551,552,551,551,551,551,551,551,551,551,551,551,551,551,551,551,551,551,551,551,550,550,550,550,550,550,550,550,550,550,550,551,550,550,550,550,551,549,550,549,549,551,549,549,548,549,550,549,550,549,549,548,548,548,549,548,549,548,548,548,549,549,547,547,548,547,547,547,548,547,547,547,547,549,547,547,547,547,547,547,547,547,546,546,546,547,546,545,545,546,546,546,545,545,545,547,545,544,544,544,545,545,544,544,545,545,545,544,545,546,545,545,545,544,545,545,545,544,544,545,544,545,545,545,544,544,543,544,544,543,543,544,544,543,543,543,543,543,543,543,543,543,544,543,543,543,543,543,544,543,543,544,544,543,544,543,543,543,544,543,544,543,542,543,543,543,543,543,543,542,544,543,543,543,543,543,542,542,543,543,543,543,542,542,543,543,542,542,542,542,542,542,542,542,542,542,542,542,543,542,541,543,543,542,542,542,542,541,542,542,542,542,541,542,542,542,542,542,542,542,542,541,541,543,541,542,541,542,542,542,541,542,542,542,540,541,542,541,541,540,541,540,540,541,540,540,541,541,540,539,540,540,539,539,539,538,539,540,540,540,540,540,540,539,540,541,539,539,540,540,540,540,540,540,541,541,540,541,540,541,540,540,540,540,541,540,541,541,540,540,541,541,542,539,541,540,540,541,541,541,540,540,541,540,542,542,540,542,541,541,541,540,541,540,540,541,540,541,540,540,541,541,540,540,541,540,541,541,541,541,541,539,541,541,542,541,540,542,541,541,543,543,542,541,541,541,541,541,541,540,542,542,541,541,541,541,541,540,540,540,541,541,541,542,541,541,541,541,542,542,541,541,542,541,542,542,541,541,542,542,541,541,541,541,540,542,541,541,541,541,541,541,541,541,542,541,541,542,541,542,542,543,542,542,542,542,542,542,541,541,541,541,542,541,542,542,540,540,541,541,541,542,541,541,541,542,542,542,541,542,541,541,541,541,541,540,541,542,541,542,542,541,540,541,540,541,542,541,541,541,541,541,542,541,540,541,541,541,541,541,542,541,541,541,542,541,541,541,542,541,541,542,542,541,541,542,543,542,541,541,541,541,541,541,541,542,542,542,542,541,543,542,542,541,542,542,541,541,541,542,542,540,542,541,541,541,542,542,542,542,541,543,541,541,542,541,541,542,542,541,541,542,542,541,542,542,541,542,541,541,541,543,542,541,541,541,541,542,542,541,542,542,541,542,541,542,541,542,542,542,542,542,541,542,542,542,542,542,542,542,542,542,542,542,542,542,542,543,542,542,542,542,542,543,542,542,542,542,542,542,543,543,542,543,542,543,542,543,544,543,543,543,542,543,543,543,543,543,543,543,543,543,543,542,543,543,543,543,543,544,543,544,544,543,544,544,543,543,544,544,543,543,543,543,544,544,543,543,544,543,543,544,543,543,544,543,544,544,543,543,544,544,543,543,544,543,543,544,543,543,544,544,544,544,544,543,545,544,544,544,543,543,543,543,543,543,543,543,542,543,543,543,544,543,543,544,544,543,543,544,543,544,544,544,544,544,544,543,544,544,543,543,543,544,543,544,544,544,543,544,544,543,543,544,544,544,544,543,544,544,543,544,544,545,543,543,543,543,544,544,543,543,543,543,543,544,543,543,543,543,544,543,543,543,544,543,543,544,544,544,544,544,543,544,544,543,543,543,544,544,543,544,543,544,543,544,544,545,544,544,544,543,544,543,544,544,544,543,544,543,544,544,543,543,544
494,494,493,494,494,493,493,494,494,493,494,494,494,493,494,493,493,494,494,494,494,494,494,493,494,494,494,494,494,493,493,494,494,494,494,493,493,493,494,494,494,493,494,494,493,493,494,494,494,494,494,494,493,494,493,493,493,494,493,493,493,494,494,494,493,493,493,494,494,494,494,493,494,494,494,494,494,494,493,494,494,494,494,494,493,494,494,494,493,494,494,494,494,493,494,494,494,493,494,494,494,493,493,494,495,494,493,495,493,494,494,494,494,494,494,493,494,494,494,494,494,494,494,494,494,494,494,494,494,494,494,493,494,494,494,494,494,495,494,494,494,495,494,494,494,495,494,493,494,494,493,495,494,494,494,494,494,494,494,494,493,494,493,493,494,494,492,494,494,495,494,494,494,494,494,494,494,494,494,493,493,494,493,494,494,494,494,494,494,494,493,494,494,493,494,494,494,494,494,494,494,494,494,493,494,494,493,494,493,494,494,494,493,494,493,493,494,494,494,493,493,494,494,494,493,493,494,494,494,494,494,494,494,494,495,493,494,494,494,494,494,494,495,493,494,494,494,494,494,494,494,494,494,494,494,494,494,494,494,494,494,494,494,494,494,494,494,494,494,494,494,494,493,494,494,493,493,493,493,493,494,494,493,494,494,494,494,493,494,494,493,493,494,493,494,494,494,493,493,493,494,494,494,494,493,494,494,494,494,494,493,493,493,494,494,493,494,493,494,493,493,494,494,494,494,494,493,494,494,494,494,494,494,494,494,493,493,493,493,494,494,494,493,493,494,495,493,493,494,493,493,493,494,494,493,494,494,494,493,494,493,493,493,494,494,493,493,493,494,493,493,493,493,493,493,493,493,494,493,493,493,493,494,493,493,493,494,493,493,494,493,493,493,494,494,495,493,494,493,493,494,494,493,494,493,493,494,494,494,494,493,493,494,493,494,494,494,493,494,494,494,493,494,493,493,493,493,494,493,494,493,494,494,493,493,492,493,494,494,493,493,493,493,493,494,493,493,493,493,493,493,493,494,493,493,494,493,493,494,494,493,494,494,494,494,493,494,493,493,494,494,493,493,494,493,493,493,493,493,493,494,494,493,492,493,493,493,493,492,494,494,493,493,493,493,493,493,493,493,493,493,493,494,493,493,493,493,493,494,493,493,493,493,493,493,494,494,492,494,493,493,493,493,493,493,493,493,493,494,493,493,493,493,493,494,493,493,493,492,493,493,493,493,492,493,493,493,493,493,493,494,493,493,493,493,494,494,493,493,493,493,492,493,493,494,493,493,493,493,493,493,494,493,493,493,493,492,494,493,494,493,493,493,493,493,493,493,493,493,493,493,493,493,493,492,492,493,493,493,492,493,493,493,493,493,493,493,492,493,493,493,492,492,493,493,493,493,492,493,493,493,493,493,493,494,492,492,493,493,493,493,492,492,493,493,492,492,493,492,493,492,492,493,492,493,492,493,493,493,493,493,493,493,492,493,492,492,492,493,493,493,492,493,493,493,493,492,492,493,493,492,493,493,493,493,492,493,492,493,492,493,493,493,492,492,492,493,492,493,493,492,493,493,492,492,492,493,492,492,492,492,493,492,492,493,492,492,492,491,493,493,492,492,493,492,492,492,491,493,492,492,493,493,492,491,492,493,493,492,492,493,492,492,492,492,492,492,492,492,492,493,491,492,492,493,493,493,492,492,492,493,492,491,493,492,494,492,492,492,492,493,492,493,493,492,492,492,493,493,492,493,492,492,492,493,492,493,492,492,491,493,492,493,492,492,493,492,492,492,492,493,492,492,492,492,492,493,493,492,493,493,492,491,493,492,493,492,492,492,492,493,493,492,492,492,492,492,491,493,493,492,492,492,492,493,493,492,493,493,492,493,493,493,493,491,492,492,493,493,492,492,492,492,493,492,492,492,492,492,492,492,493,493,492,492,492,492,492,492,492,492,493,493,492,492,493,493,492,492,492,492,492,492,493,493,493,492,492,492,492,493,492,492,491,491,492,493,491,492,492,492,492,492,491,492,493,492,492,492,492,491,492,492,491,491,491,492,492,492,492,492,492,492,492,491,493,493,492,493,492,491,492,492,492,492,492,492,493,492,492,491,492,493,492,491,493,491,492,492,492,493,491,492,492,491,492,492,492,492,492,492,493,492,491,492,492,490,493,492,492,492,492,492,492,492,492,491,492,492,492,491,491,492,492,492,492,493,492,491,491,492,493,492,492,491,492,491,492,492,492,492,492,492,491,492,492,493,493,492,492,492
494,494,494,493,493,493,493,493,493,493,493,494,493,494,493,494,493,493,494,493,493,494,493,493,494,493,494,494,494,494,494,494,494,494,493,494,493,494,494,494,493,494,494,494,494,494,494,494,494,493,493,493,494,493,493,494,494,494,494,493,494,494,494,494,494,493,493,494,494,493,494,493,493,494,494,494,494,494,493,494,494,494,494,493,493,494,494,495,493,494,494,494,494,494,494,493,494,494,493,494,493,493,494,493,493,494,493,493,493,493,494,494,493,494,493,493,494,493,494,494,493,493,493,494,493,493,494,492,493,493,494,493,493,493,493,494,493,493,493,494,494,494,494,493,494,493,494,493,493,493,493,493,494,493,493,494,493,493,494,493,493,493,494,493,494,494,494,493,494,493,494,493,494,493,494,493,494,493,493,494,493,494,493,494,493,493,494,493,493,493,494,493,493,493,494,494,493,494,493,493,493,493,493,493,494,494,494,494,493,494,494,494,492,494,494,493,494,494,494,494,494,493,493,493,494,494,494,494,493,494,494,493,494,494,493,494,494,493,494,494,493,494,493,494,494,494,494,494,493,494,494,494,493,494,494,494,494,493,494,493,494,494,494,494,494,494,493,494,493,494,493,494,493,493,493,493,493,494,494,493,494,494,494,494,494,493,494,494,494,493,493,493,493,495,493,493,494,494,493,494,494
507,508,507,508,507,507,507,507,508,507,508,508,508,508,508,508,508,507,507,508,508,507,507,508,507,508,508,507,509,507,508,508,508,508,507,507,507,509,506,508,508,507,508,507,508,509,508,508,508,508,507,509,508,508,508,508,508,508,507,508,508,507,507,507,507,508,508,507,508,508,507,508,508,507,508,508,507,508,508,508,509,507,508,509,508,508,508,508,508,509,508,508,509,508,508,508,507,507,506,508,507,508,507,508,509,508,509,508,508,507,509,507,507,509,508,509,508,508,509,508,509,510,508,509,508,508,509,509,508,509,509,508,508,508,509,509,508,508,509,509,508,508,507,509,508,509,508,509,508,508,508,509,509,508,508,508,508,508,509,509,509,508,508,508,508,508,508,509,509,509,508,509,508,509,509,508,509,509,508,509,509,509,509,509,508,508,508,508,508,509,509,509,509,510,509,509,509,509,509,509,508,508,509,509,509,509,509,508,509,509,509,508,509,509,508,509,509,508,509,509,509,509,509,509,508,509,508,509,509,508,509,509,509,509,510,508,509,509,508,509,509,509,510,509,510,510,509,510,509,509,509,509,510,509,510,510,509,510,509,510,509,510,510,509,509,509,510,511,509,510,510,510,509,509,509,509,509,510,510,510,510,509,510,510,510,511,510,509,510,510,509,510,510,508,510,509,510,511,510,509,509,509,510,510,510,510,510,509,509,510,509,510,510,511,510,510,510,510,511,510,510,510,509,510,510,510,509,511,509,510,509,510,510,510,510,510,510,509,510,510,510,509,510,510,510,511,511,510,510,511,509,510,510,510,509,509,510,509,509,510,510,509,510,510,510,510,510,510,510,510,510,509,510,510,510,509,510,510,510,510,510,510,510,510,509,510,510,510,510,510,510,510,509,510,510,510,509,509,511,510,510,510,510,509,510,509,510,509,509,510,510,510,510,510,509,510,510,510,511,510,510,510,509,510,510,509,510,511,510,510,510,510,510,510,510,510,510,510,510,511,511,510,510,510,510,510,510,510,510,509,510,511,511,510,510,510,510,510,510,509,509,511,510,510,510,510,511,510,510,511,511,511,510,510,510,511,509,511,510,510,511,510,510,510,510,510,510,510,510,510,510,510,510,511,510,511,511,511,510,510,511
454,454,455,455,455,455,453,454,454,453,454,453,454,453,453,453,453,454,453,454,453,454,454,453,455,454,454,453,454,454,454,454,454,453,453,454,454,454,454,454,453,453,453,454,454,454,454,453,453,454,453,454,454,454,454,454,454,454,454,453,454,455,455,455,453,454,455,454,454,454,455,454,455,455,454,455,454,455,455,455,454,455,455,455,454,454,454,454,455,453,454,454,454,454,453,454,453,455,455,453,454,454,454,455,453,454,454,454,454,455,454,454,454,453,454,454,454,455,454,455,454,455,455,455,454,455,455,455,454,455,454,455,455,454,455,455,455,455,454,455,455,455,455,455,455,455,455,455,455,454,455,455,455,455,455,455,455,455,455,454,455,455,454,455,455,455,455,454,455,455,455,455,455,454,455,455,455,455,455,455,455,456,456,455,455,455,456,456,455,456,455,455,455,455,455,455,455,455,455,455,456,456,456,457,456,456,456,455,455,456,455,456,456,457,456,455,455,456,456,457,455,455,455,456,456,456,455,457,457,456,457,456,457,456,456,457,456,456,456,457,457,456,456,456,457,456,456,457,457,456,457,458,457,456,457,457,456,458,457,457,457,456,457,458,457,457,457,455,457,456,456,456,457,457,457,456,456,458,457,457,455,456,456,457,456,457,456,457,455,456,457,456,457,456,455,457,457,456,457,457,456,456,457,456,456,456,456,457,456,455,456,456,456,456,456,456,456,456,457,457,458,458,457,455,457,456,456,456,456,456,457,456,457,456,456,455,457,459,457,457,457,456,457,457,456,457,457,457,457,456,457,456,456,455,456,457,457,457,455,456,456,456,455,457,456,456,456,455,455,456,456,456,457,455,456,456,456,457,457,457,457,457,457,457,456,456,456,457,456,457,457,456,457,455,458,457,457,458,456,456,457,459,458,456,457,457,457,458,458,457,459,457,457,459,460,459,458,458,458,458,458,458,458,459,457,460,457,459,458,458,457,459,458,458,457,457,457,458,458,458,457,459,458,459,457,458,457,458,457,457,458,459,458,460,459,459,458,459,459,459,459,458,459,458,457,459,459,457,458,458,458,458,460,459,460,459,459,461,460,459,459,458,459,458,458,457,458,458,459,458,459,459,458,459,458,457,458,458,458,458,458
497,497,497,497,498,497,497,498,496,497,496,497,496,496,497,496,496,497,496,496,495,497,496,496,496,497,496,495,497,496,495,495,496,495,496,496,496,496,495,496,495,496,495,495,495,496,495,496,495,496,495,495,495,495,496,495,495,496,495,495,496,495,496,495,495,495,496,494,495,495,494,494,494,495,495,495,495,494,494,494,495,494,495,495,494,493,494,493,494,495,494,494,494,494,494,494,494,495,494,494,494,494,494,494,494,493,493,495,493,494,493,494,493,494,493,492,493,494,493,494,494
489,489,489,490,489,489,490,489,489,491,488,488,490,490,489,489,490,490,489,488,488,488,489,490,488,489,488,489,490,488,490,488,489,490,489,489,488,490,489,489,488,489,490,490,489,490,489,489,489,489,489,488,488,490,490,489,489,490,489,489,489,488,489,489,489,489,489,490,489,489,488,489,490,489,490,489,490,490,489,490,490,490,489,489,489,489,490,489,489,489,490,491,488,489,489,490,489,488,489,489,489,490,490,490,490,490,489,491,490,488,490,489,490,489,489,490,488,488,489,490,489,488,490,490,490,489,488,489,488,488,490,490,490,489,490,489,490,489,489,489,489,489,490,489,489,489,489,490,489,489,490,489,488,490,490,489,490,490,489,490,489,489,490,490,490,489,489,489,490,490,489,489,489,489,489,491,489,488,489,489,490,489,491,490,491,489,490,490,489,489,489,490,488,490,490,490,490,490,490,491,490,491,490,490,490,490,490,490,490,490,491,490,490,489,489,489,490,490,489,490,491,490,489,491,491,490,489,491,489,490,490,490,490,490,490,490,491,488,490,489,490,491,490,490,491,491,490,490,489,490,491,490,489,491,490,490,489,490,489,491,490,490,490,489,490,489,490,489,490,491,489,489,490,489,490,489,490,490,490,489,491,489,490,490,490,490,489,491,490,490,490,489,490,490,490,489,490,489,490,490,491,490,488,490,490,491,490,490,489,490,490,490,490,490,489,489,490,488,489,490,489,491,491,491,490,489,490,490,489,491,489,491,490,490,489,490,489,489,490,491,490,489,490,490,490,490,490,490,490,491,490,490,490,489,490,490,490,490,491,489,490,490,491,490,491,490,489,491,490,490,490,490,491,490,490,489,490,492,491,490,491,491,489,489,490,491,490,489,490,491,491,490,490,490,491,489,490,490,491,490,490,490,490,491,490,490,491,489,490,489,489,490,490,491,491,490,491,489,490,490,490,490,490,490,491,489,489,490,490,490,489,489,491,490,489,491,490,490,490,490,488,490,490,490,491,491,491,491,490,490,491,491,491,490,491,489,491,491,490,491,491,490,490,490,492,489,491,491,491,491,490,491,490,491,490,490,491,490,491,491,491,490,490,489,490,491,490,490,490,490,489,490,491,489,490,491,489,490,491,491,491,488,490,490,489,490,491,491,489,492,489,489,491,489,490,491,490,490,491,491,491,491,489,491,490,491,491,490,490,491,492,491,491,489,491,491,491,491,489,491,491,492,491,490,490,491,490,490,491,490,490,491,491,491,491,492,491,489,491,492,491,491,490,490,491,491,491,492,490,490,492,492,491,490,489,491,492,491,491,491,491,490,492,491,491,491,491,492,490,491,489,491,492,491,491,491,492,490,491,491,489,490,490,491,491,492,491,491,491,491,492,490,492,491,490,491,491,490,491,491,491,492,491,492,491,490,491,492,490,490,490,491,491,490,492,490,491,491,491,491,491,489,491,491,491,490,491,491,491,490,490,491,491,490,491,491,491,492,491,491,491,491,490,491,491,491,491,491,491,492,491,491,491,492,491,491,491,490,492,492,491,492,491,491,491,491,492,492,491,491,491,490,490,492,491,491,490,490,490,492,491,490,491,491,492,491,491,491,491,492,492,492,490,491,491,491,491,491,491,491,491,491,491,492,492,489,491,491,492,490,489,492,490,491,492,490,491,491,491,492,491,490,492,492,491,491,491,491,491,491,491,492,490,491,491,491,491,491,491,491,491,491,491,491,491,491,491,491,490,491,491,491,491,492,490,492,491,491,491,491,490,490,491,491,491,492,491,492,491,491,491,492,491,491,492,491,490,490,491,491,492,491,491,492,491,490,491,492,491,491,491,491,490,490,492,492,492,491,491,491,491,491,490,491,491,491,492,491,491,490,491,491,491,493,491,490,491,491,492,492,491,491,492,492,491,492,492,492,491,492,491,490,492,492,491,492,491,492,491,490,491,492,492,492,490,492,492,491,492,491,492,490,492,492,491,493,491,492,491,491,492,491,491,490,491,491,492,491,490,491,492,491,491,491,490,491,491,491,491,492,492,491,492,492,491,491,492,491,493,491,491,491,491,492,492,491,491,492,492,491,492,491,492,491,491,491,491,490,491,491,492,491,493,491,492,492,491,492,491,491,491,491,491,491,492,490,492,490,491,490,490,490,492,491,491,491,491,490,492,492,492,492,491,492,491,491,491,491,491,491,491,492,491,491,491,491,491,492,491,492,491,492,491,492,492,492,492,492,491,491,491,492,492,490,492,492,491,491,491,491,491
533,533,535,533,534,534,534,534,533,533,534,535,534,535,534,534,535,535,534,533,533,534,534,534,534,534,534,533,534,534,534,534,535,534,534,534,534,535,533,533,534,534,534,534,535,535,534,534,534,535,534,534,534,535,534,535,533,534,534,534,535,534,534,533,534,534,534,535,535,534,534,534,535,534,534,534,534,534,534,534,535,533,535,535,534,534,535,534,535,535,535,533,534,534,535,534,534,534,535,534,534,534,534,534,534,533,534,534,535,534,535,534,534,535,534,535,534,534,535,534,534,534,535,535,535,535,534,535,535,535,534,534,534,535,535,534,535,535,534,534,535,535,535,534,534,535,535,534,535,534,534,535,534,535,534,535,535,535,534,535,534,535,534,535,535,535,535,535,534,535,535,535,535,535,535,536,536,535,535,536,535,535,535,535,535,535,535,535,536,535,535,536,536,535,535,535,535,536,536,536,536,535,536,535,536,536,535,536,536,535,536,535,535,536,535,536,536,536,535,536,536,536,536,534,536,536,536,535,536,536,535,535,535,536,536,535,537,536,536,536,535,536,536,537,536,536,536,537,536,535,536,535,536,536,536,536,537,536,536,536,535,536,536,536,535,535,536,536,536,536,536,535,536,536,535,536,535,537,536,536,537,536,535,536,536,535,536,536,536,536,536,536,536,536,536,536,536,535,536,535,537,537,536,538,537,537,535,536,536,536,538,537,536,538,536,537,536,536,537,537,537,536,537,537,538,538,537,537,536,537,537,537,536,536,536,537,536,537,537,536,536,537,537,535,536,536,535,536,537,536,536,537,537,536,536,537,537,537,537,538,535,537,537,535,537,537,535,537,536,537,536,537,537,536,536,537,538,538,537,536,537,535,537,538,537,537,537,538,537,537,538,538,538,537,537,536,538,537,536,538,537,538,537,538,538,538,537,537,537,537,537,537,538,538,536,537,536,538,537,537,538,538,536,537,538,537,537,537,537,537,536,536,537,537,536,537,537,538,539,538,536,538,538,536,538,537,536,537,537,538,538,539,538,538,538,537,538,538,539,539,537,539,538,537,538,538,538,538,538,538,538,538,539,538,538,538,538,538,538,538,538,539,538,537,539,538,538,539,539,539,538,539,538,538,537,539,538,539,538,537,538
